543.55714,9323
543.79683,9315
544.03651,9301
544.27619,9303
544.51587,9304
544.75556,9301
544.99524,9309
545.23492,9303
545.4746,9313
545.71429,9327
545.95397,9323
546.19365,9328
546.43333,9330
546.67302,9331
546.9127,9322
547.15238,9329
547.39206,9341
547.63175,9357
547.87143,9360
548.11111,9337
548.35079,9334
548.59048,9338
548.83016,9330
549.06984,9347
549.30952,9346
549.54921,9345
549.78889,9352
550.02857,9358
550.26825,9352
550.50794,9353
550.74762,9358
550.9873,9349
551.22698,9356
551.46667,9353
551.70635,9347
551.94603,9341
552.18571,9347
552.4254,9351
552.66508,9348
552.90476,9346
553.14444,9354
553.38413,9352
553.62381,9354
553.86349,9354
554.10317,9348
554.34286,9351
554.58254,9353
554.82222,9347
555.0619,9349
555.30159,9351
555.54127,9335
555.78095,9345
556.02063,9353
556.26032,9339
556.5,9341
556.73968,9345
556.97937,9343
557.21905,9350
557.45873,9357
557.69841,9342
557.9381,9352
558.17778,9354
558.41746,9349
558.65714,9353
558.89683,9359
559.13651,9341
559.37619,9355
559.61587,9358
559.85556,9356
560.09524,9359
560.33492,9347
560.5746,9344
560.81429,9349
561.05397,9361
561.29365,9358
561.53333,9357
561.77302,9353
562.0127,9344
562.25238,9362
562.49206,9352
562.73175,9358
562.97143,9354
563.21111,9355
563.45079,9350
563.69048,9350
563.93016,9350
564.16984,9357
564.40952,9349
564.64921,9357
564.88889,9351
565.12857,9362
565.36825,9349
565.60794,9366
565.84762,9356
566.0873,9353
566.32698,9353
566.56667,9363
566.80635,9348
567.04603,9354
567.28571,9354
567.5254,9366
567.76508,9349
568.00476,9358
568.24444,9349
568.48413,9358
568.72381,9345
568.96349,9359
569.20317,9364
569.44286,9362
569.68254,9353
569.92222,9342
570.1619,9362
570.40159,9358
570.64127,9360
570.88095,9357
571.12063,9352
571.36032,9358
571.6,9355
571.83968,9344
572.07937,9361
572.31905,9353
572.55873,9356
572.79841,9358
573.0381,9353
573.27778,9358
573.51746,9362
573.75714,9359
573.99683,9368
574.23651,9360
574.47619,9350
574.71587,9355
574.95556,9353
575.19524,9354
575.43492,9355
575.6746,9354
575.91429,9361
576.15397,9356
576.39365,9365
576.63333,9365
576.87302,9366
577.1127,9356
577.35238,9350
577.59206,9358
577.83175,9355
578.07143,9364
578.31111,9365
578.55079,9362
578.79048,9356
579.03016,9359
579.26984,9362
579.50952,9363
579.74921,9365
579.98889,9367
580.22857,9356
580.46825,9352
580.70794,9349
580.94762,9354
581.1873,9349
581.42698,9362
581.66667,9355
581.90635,9353
582.14603,9359
582.38571,9351
582.6254,9360
582.86508,9366
583.10476,9364
583.34444,9369
583.58413,9363
583.82381,9362
584.06349,9372
584.30317,9356
584.54286,9358
584.78254,9359
585.02222,9358
585.2619,9358
585.50159,9361
585.74127,9358
585.98095,9361
586.22063,9363
586.46032,9362
586.7,9366
586.93968,9370
587.17937,9363
587.41905,9369
587.65873,9368
587.89841,9357
588.1381,9362
588.37778,9362
588.61746,9360
588.85714,9362
589.09683,9360
589.33651,9371
589.57619,9353
589.81587,9365
590.05556,9357
590.29524,9355
590.53492,9359
590.7746,9360
591.01429,9368
591.25397,9368
591.49365,9353
591.73333,9360
591.97302,9354
592.2127,9370
592.45238,9355
592.69206,9370
592.93175,9360
593.17143,9365
593.41111,9353
593.65079,9362
593.89048,9355
594.13016,9354
594.36984,9359
594.60952,9355
594.84921,9353
595.08889,9356
595.32857,9354
595.56825,9358
595.80794,9353
596.04762,9356
596.2873,9363
596.52698,9361
596.76667,9358
597.00635,9368
597.24603,9355
597.48571,9351
597.7254,9364
597.96508,9364
598.20476,9364
598.44444,9361
598.68413,9354
598.92381,9352
599.16349,9356
599.40317,9357
599.64286,9366
599.88254,9357
600.12222,9360
600.3619,9369
600.60159,9369
600.84127,9359
601.08095,9352
601.32063,9357
601.56032,9365
601.8,9360
602.03968,9371
602.27937,9364
602.51905,9374
602.75873,9369
602.99841,9372
603.2381,9384
603.47778,9386
603.71746,9397
603.95714,9417
604.19683,9431
604.43651,9442
604.67619,9477
604.91587,9491
605.15556,9471
605.39524,9446
605.63492,9424
605.8746,9378
606.11429,9375
606.35397,9366
606.59365,9369
606.83333,9368
607.07302,9366
607.3127,9365
607.55238,9362
607.79206,9370
608.03175,9366
608.27143,9370
608.51111,9372
608.75079,9391
608.99048,9395
609.23016,9398
609.46984,9412
609.70952,9415
609.94921,9426
610.18889,9433
610.42857,9441
610.66825,9453
610.90794,9440
611.14762,9416
611.3873,9401
611.62698,9403
611.86667,9390
612.10635,9392
612.34603,9386
612.58571,9386
612.8254,9380
613.06508,9381
613.30476,9379
613.54444,9379
613.78413,9393
614.02381,9380
614.26349,9372
614.50317,9370
614.74286,9378
614.98254,9390
615.22222,9372
615.4619,9369
615.70159,9384
615.94127,9369
616.18095,9369
616.42063,9376
616.66032,9379
616.9,9374
617.13968,9370
617.37937,9373
617.61905,9380
617.85873,9375
618.09841,9370
618.3381,9370
618.57778,9375
618.81746,9360
619.05714,9372
619.29683,9369
619.53651,9391
619.77619,9369
620.01587,9385
620.25556,9369
620.49524,9376
620.73492,9362
620.9746,9357
621.21429,9360
621.45397,9352
621.69365,9355
621.93333,9352
622.17302,9358
622.4127,9357
622.65238,9358
622.89206,9350
623.13175,9348
623.37143,9355
623.61111,9360
623.85079,9352
624.09048,9355
624.33016,9358
624.56984,9349
624.80952,9354
625.04921,9363
625.28889,9350
625.52857,9360
625.76825,9356
626.00794,9347
626.24762,9358
626.4873,9355
626.72698,9348
626.96667,9355
627.20635,9357
627.44603,9347
627.68571,9359
627.9254,9349
628.16508,9356
628.40476,9341
628.64444,9351
628.88413,9358
629.12381,9353
629.36349,9354
629.60317,9351
629.84286,9360
630.08254,9385
630.32222,9474
630.5619,9525
630.80159,9598
631.04127,9692
631.28095,9689
631.52063,9648
631.76032,9592
632,9556
632.23968,9526
632.47937,9475
632.71905,9429
632.95873,9391
633.19841,9372
633.4381,9368
633.67778,9364
633.91746,9367
634.15714,9364
634.39683,9354
634.63651,9358
634.87619,9359
635.11587,9349
635.35556,9350
635.59524,9370
635.83492,9350
636.0746,9360
636.31429,9348
636.55397,9345
636.79365,9353
637.03333,9357
637.27302,9359
637.5127,9353
637.75238,9359
637.99206,9359
638.23175,9355
638.47143,9351
638.71111,9367
638.95079,9363
639.19048,9360
639.43016,9350
639.66984,9355
639.90952,9350
640.14921,9356
640.38889,9358
640.62857,9356
640.86825,9351
641.10794,9347
641.34762,9348
641.5873,9360
641.82698,9358
642.06667,9359
642.30635,9355
642.54603,9360
642.78571,9358
643.0254,9365
643.26508,9366
643.50476,9376
643.74444,9371
643.98413,9368
644.22381,9365
644.46349,9365
644.70317,9372
644.94286,9368
645.18254,9371
645.42222,9370
645.6619,9373
645.90159,9365
646.14127,9368
646.38095,9370
646.62063,9371
646.86032,9367
647.1,9370
647.33968,9365
647.57937,9366
647.81905,9363
648.05873,9375
648.29841,9373
648.5381,9372
648.77778,9374
649.01746,9367
649.25714,9377
649.49683,9381
649.73651,9372
649.97619,9362
650.21587,9369
650.45556,9370
650.69524,9369
650.93492,9367
651.1746,9370
651.41429,9364
651.65397,9360
651.89365,9378
652.13333,9371
652.37302,9367
652.6127,9367
652.85238,9368
653.09206,9363
653.33175,9368
653.57143,9362
653.81111,9371
654.05079,9373
654.29048,9376
654.53016,9379
654.76984,9370
655.00952,9370
655.24921,9377
655.48889,9370
655.72857,9389
655.96825,9367
656.20794,9376
656.44762,9375
656.6873,9385
656.92698,9381
657.16667,9395
657.40635,9387
657.64603,9398
657.88571,9420
658.1254,9415
658.36508,9427
658.60476,9443
658.84444,9466
659.08413,9528
659.32381,9666
659.56349,10059
659.80317,10824
660.04286,11587
660.28254,12094
660.52222,12254
660.7619,11936
661.00159,11352
661.24127,10851
661.48095,10484
661.72063,10291
661.96032,10185
662.2,10125
662.43968,10014
662.67937,9896
662.91905,9803
663.15873,9718
663.39841,9634
663.6381,9571
663.87778,9543
664.11746,9501
664.35714,9474
664.59683,9453
664.83651,9434
665.07619,9434
665.31587,9409
665.55556,9412
665.79524,9399
666.03492,9395
666.2746,9397
666.51429,9390
666.75397,9422
666.99365,9405
667.23333,9391
667.47302,9393
667.7127,9390
667.95238,9385
668.19206,9384
668.43175,9395
668.67143,9397
668.91111,9404
669.15079,9400
669.39048,9399
669.63016,9397
669.86984,9399
670.10952,9382
670.34921,9385
670.58889,9387
670.82857,9385
671.06825,9376
671.30794,9361
671.54762,9378
671.7873,9366
672.02698,9374
672.26667,9380
672.50635,9379
672.74603,9374
672.98571,9377
673.2254,9376
673.46508,9371
673.70476,9379
673.94444,9372
674.18413,9377
674.42381,9363
674.66349,9371
674.90317,9365
675.14286,9368
675.38254,9359
675.62222,9366
675.8619,9372
676.10159,9363
676.34127,9361
676.58095,9367
676.82063,9362
677.06032,9366
677.3,9367
677.53968,9366
677.77937,9363
678.01905,9365
678.25873,9378
678.49841,9372
678.7381,9378
678.97778,9373
679.21746,9388
679.45714,9390
679.69683,9394
679.93651,9401
680.17619,9437
680.41587,9477
680.65556,9520
680.89524,9519
681.13492,9512
681.3746,9498
681.61429,9445
681.85397,9440
682.09365,9418
682.33333,9406
682.57302,9403
682.8127,9386
683.05238,9380
683.29206,9388
683.53175,9377
683.77143,9372
684.01111,9369
684.25079,9371
684.49048,9361
684.73016,9363
684.96984,9367
685.20952,9374
685.44921,9379
685.68889,9394
685.92857,9392
686.16825,9401
686.40794,9378
686.64762,9383
686.8873,9387
687.12698,9373
687.36667,9379
687.60635,9359
687.84603,9364
688.08571,9363
688.3254,9356
688.56508,9376
688.80476,9373
689.04444,9362
689.28413,9359
689.52381,9371
689.76349,9365
690.00317,9370
690.24286,9375
690.48254,9365
690.72222,9387
690.9619,9391
691.20159,9388
691.44127,9400
691.68095,9410
691.92063,9406
692.16032,9415
692.4,9421
692.63968,9457
692.87937,9497
693.11905,9557
693.35873,9642
693.59841,9656
693.8381,9667
694.07778,9645
694.31746,9577
694.55714,9532
694.79683,9478
695.03651,9459
695.27619,9448
695.51587,9440
695.75556,9425
695.99524,9421
696.23492,9424
696.4746,9408
696.71429,9405
696.95397,9399
697.19365,9391
697.43333,9389
697.67302,9384
697.9127,9369
698.15238,9379
698.39206,9362
698.63175,9375
698.87143,9363
699.11111,9367
699.35079,9366
699.59048,9367
699.83016,9360
700.06984,9368
700.30952,9370
700.54921,9357
700.78889,9366
701.02857,9371
701.26825,9411
701.50794,9403
701.74762,9387
701.9873,9401
702.22698,9399
702.46667,9380
702.70635,9379
702.94603,9356
703.18571,9368
703.4254,9361
703.66508,9360
703.90476,9375
704.14444,9363
704.38413,9355
704.62381,9363
704.86349,9375
705.10317,9369
705.34286,9367
705.58254,9375
705.82222,9377
706.0619,9377
706.30159,9374
706.54127,9368
706.78095,9366
707.02063,9367
707.26032,9378
707.5,9374
707.73968,9365
707.97937,9358
708.21905,9379
708.45873,9365
708.69841,9365
708.9381,9356
709.17778,9358
709.41746,9353
709.65714,9361
709.89683,9357
710.13651,9367
710.37619,9358
710.61587,9371
710.85556,9366
711.09524,9369
711.33492,9370
711.5746,9366
711.81429,9359
712.05397,9368
712.29365,9358
712.53333,9369
712.77302,9358
713.0127,9370
713.25238,9358
713.49206,9359
713.73175,9366
713.97143,9348
714.21111,9360
714.45079,9358
714.69048,9357
714.93016,9360
715.16984,9364
715.40952,9365
715.64921,9360
715.88889,9358
716.12857,9359
716.36825,9352
716.60794,9370
716.84762,9359
717.0873,9358
717.32698,9358
717.56667,9358
717.80635,9364
718.04603,9362
718.28571,9351
718.5254,9349
718.76508,9367
719.00476,9350
719.24444,9364
719.48413,9350
719.72381,9357
719.96349,9369
720.20317,9356
720.44286,9360
720.68254,9362
720.92222,9352
721.1619,9365
721.40159,9358
721.64127,9363
721.88095,9354
722.12063,9362
722.36032,9355
722.6,9363
722.83968,9387
723.07937,9405
723.31905,9393
723.55873,9398
723.79841,9387
724.0381,9377
724.27778,9366
724.51746,9368
724.75714,9360
724.99683,9367
725.23651,9368
725.47619,9351
725.71587,9360
725.95556,9363
726.19524,9360
726.43492,9402
726.6746,9365
726.91429,9360
727.15397,9365
727.39365,9362
727.63333,9353
727.87302,9363
728.1127,9358
728.35238,9356
728.59206,9356
728.83175,9362
729.07143,9355
729.31111,9361
729.55079,9364
729.79048,9358
730.03016,9354
730.26984,9358
730.50952,9362
730.74921,9397
730.98889,9365
731.22857,9360
731.46825,9359
731.70794,9355
731.94762,9357
732.1873,9364
732.42698,9361
732.66667,9358
732.90635,9352
733.14603,9361
733.38571,9353
733.6254,9353
733.86508,9362
734.10476,9358
734.34444,9365
734.58413,9362
734.82381,9359
735.06349,9359
735.30317,9351
735.54286,9369
735.78254,9373
736.02222,9369
736.2619,9370
736.50159,9369
736.74127,9371
736.98095,9373
737.22063,9368
737.46032,9374
737.7,9379
737.93968,9372
738.17937,9363
738.41905,9370
738.65873,9359
738.89841,9361
739.1381,9381
739.37778,9360
739.61746,9374
739.85714,9375
740.09683,9384
740.33651,9366
740.57619,9377
740.81587,9375
741.05556,9370
741.29524,9363
741.53492,9377
741.7746,9363
742.01429,9370
742.25397,9363
742.49365,9362
742.73333,9354
742.97302,9377
743.2127,9387
743.45238,9363
743.69206,9373
743.93175,9363
744.17143,9357
744.41111,9362
744.65079,9360
744.89048,9354
745.13016,9354
745.36984,9356
745.60952,9358
745.84921,9363
746.08889,9355
746.32857,9364
746.56825,9366
746.80794,9362
747.04762,9362
747.2873,9356
747.52698,9365
747.76667,9358
748.00635,9360
748.24603,9357
748.48571,9355
748.7254,9356
748.96508,9361
749.20476,9354
749.44444,9363
749.68413,9377
749.92381,9361
750.16349,9376
750.40317,9372
750.64286,9370
750.88254,9385
751.12222,9381
751.3619,9382
751.60159,9374
751.84127,9378
752.08095,9367
752.32063,9368
752.56032,9381
752.8,9372
753.03968,9370
753.27937,9364
753.51905,9366
753.75873,9366
753.99841,9360
754.2381,9357
754.47778,9357
754.71746,9361
754.95714,9351
755.19683,9363
755.43651,9353
755.67619,9363
755.91587,9358
756.15556,9358
756.39524,9356
756.63492,9367
756.8746,9359
757.11429,9357
757.35397,9354
757.59365,9366
757.83333,9353
758.07302,9350
758.3127,9352
758.55238,9359
758.79206,9354
759.03175,9361
759.27143,9352
759.51111,9359
759.75079,9355
759.99048,9361
760.23016,9364
760.46984,9355
760.70952,9350
760.94921,9359
761.18889,9362
761.42857,9356
761.66825,9361
761.90794,9354
762.14762,9369
762.3873,9358
762.62698,9352
762.86667,9363
763.10635,9395
763.34603,9434
763.58571,9429
763.8254,9399
764.06508,9398
764.30476,9384
764.54444,9370
764.78413,9369
765.02381,9366
765.26349,9361
765.50317,9358
765.74286,9356
765.98254,9354
766.22222,9358
766.4619,9349
766.70159,9354
766.94127,9351
767.18095,9356
767.42063,9364
767.66032,9360
767.9,9349
768.13968,9362
768.37937,9356
768.61905,9362
768.85873,9360
769.09841,9351
769.3381,9351
769.57778,9360
769.81746,9365
770.05714,9362
770.29683,9365
770.53651,9367
770.77619,9369
771.01587,9392
771.25556,9409
771.49524,9393
771.73492,9393
771.9746,9381
772.21429,9374
772.45397,9382
772.69365,9406
772.93333,9381
773.17302,9385
773.4127,9384
773.65238,9369
773.89206,9362
774.13175,9358
774.37143,9362
774.61111,9362
774.85079,9367
775.09048,9361
775.33016,9375
775.56984,9371
775.80952,9357
776.04921,9373
776.28889,9367
776.52857,9364
776.76825,9374
777.00794,9354
777.24762,9368
777.4873,9373
777.72698,9376
777.96667,9370
778.20635,9378
778.44603,9395
778.68571,9392
778.9254,9390
779.16508,9400
779.40476,9415
779.64444,9429
779.88413,9446
780.12381,9487
780.36349,9617
780.60317,9925
780.84286,10587
781.08254,11038
781.32222,10843
781.5619,10471
781.80159,10175
782.04127,9946
782.28095,9783
782.52063,9672
782.76032,9614
783,9581
783.23968,9537
783.47937,9517
783.71905,9495
783.95873,9494
784.19841,9505
784.4381,9532
784.67778,9547
784.91746,9570
785.15714,9606
785.39683,9618
785.63651,9611
785.87619,9596
786.11587,9568
786.35556,9539
786.59524,9501
786.83492,9485
787.0746,9470
787.31429,9458
787.55397,9438
787.79365,9443
788.03333,9432
788.27302,9432
788.5127,9422
788.75238,9426
